0, id 09-Temps-Mort;
1, 0.000000 0.025218 0.700546;
2, 0.020580 0.024006 0.698833;
3, 0.023562 0.048248 0.733106;
4, 0.035416 0.029183 0.569177;
5, 0.064795 0.055849 0.606878;
6, 0.070686 -0.003544 0.522909;
7, 0.117882 0.002517 0.531477;
8, 0.165079 -0.003544 0.522909;
9, 0.259399 0.036456 0.579459;
10, 0.353720 0.015850 0.550327;
11, 0.406807 -0.003544 0.522909;
12, 0.501127 0.041304 0.586314;
13, 0.595520 0.015850 0.550327;
14, 0.642644 0.041304 0.586314;
15, 0.689841 0.040092 0.584600;
16, 0.737037 0.038880 0.582887;
17, 0.831358 0.036456 0.579459;
18, 0.878554 0.019486 0.555468;
19, 0.925678 0.018274 0.553754;
20, 0.972875 0.012213 0.545186;
21, 0.986256 0.031278 0.709114;
